Local: ,2026-02-11 00:00:00+09:00,tz_sec ,32400
Linux Epoch (ms):,1770735600000.0
 ,Slot F,,,,
 ,CH1,,,CH2,
 ,Timestamp,D1,S1,D2,S2
 ,1770777539195.0,0,62998,0,47632
 ,1770777539195.0,0,62985,0,47637
 ,1770777539195.0,0,62994,0,47620
 ,1770777539195.0,0,62990,0,47618
 ,1770777539195.0,0,62989,0,47616
 ,1770777539195.0,0,62988,0,47621
 ,1770777539254.813,0,62965,0,47603
 ,1770777539254.813,0,62973,0,47611
 ,1770777539254.813,0,62973,0,47586
 ,1770777539254.813,0,62964,0,47602
 ,1770777539254.813,0,62950,0,47609
 ,1770777539254.813,0,62973,0,47601
 ,1770777539314.719,0,62960,0,47571
 ,1770777539314.719,0,62960,0,47590
 ,1770777539314.719,0,62950,0,47581
 ,1770777539314.719,0,62944,0,47560
 ,1770777539314.719,0,62941,0,47561
 ,1770777539314.719,0,62934,0,47571
 ,1770777539374.594,0,62933,0,47580
 ,1770777539374.594,0,62926,0,47559
 ,1770777539374.594,0,62940,0,47560
 ,1770777539374.594,0,62936,0,47555
 ,1770777539374.594,0,62941,0,47552
 ,1770777539374.594,0,62919,0,47542
 ,1770777539434.5,0,62944,0,47548
 ,1770777539434.5,0,62937,0,47545
 ,1770777539434.5,0,62959,0,47559
 ,1770777539434.5,0,62931,0,47561
 ,1770777539434.5,0,62942,0,47538
 ,1770777539434.5,0,62923,0,47541
 ,1770777539494.375,0,62944,0,47542
 ,1770777539494.375,0,62938,0,47553
 ,1770777539494.375,0,62948,0,47528
 ,1770777539494.375,0,62945,0,47557
 ,1770777539494.375,0,62963,0,47546
 ,1770777539494.375,0,62962,0,47550
 ,1770777539554.312,0,62967,0,47541
 ,1770777539554.312,0,62961,0,47545
 ,1770777539554.312,0,62948,0,47544
 ,1770777539554.312,0,62970,0,47542
 ,1770777539554.312,0,62984,0,47551
 ,1770777539554.312,0,62975,0,47550
 ,1770777539614.219,0,62976,0,47569
 ,1770777539614.219,0,62988,0,47543
 ,1770777539614.219,0,62989,0,47559
 ,1770777539614.219,0,62992,0,47570
 ,1770777539614.219,0,63006,0,47565
 ,1770777539614.219,0,63003,0,47552
 ,1770777539674.125,0,63025,0,47560
 ,1770777539674.125,0,63027,0,47562
 ,1770777539674.125,0,63029,0,47566
 ,1770777539674.125,0,63025,0,47584
 ,1770777539674.125,0,63025,0,47577
 ,1770777539674.125,0,63033,0,47583
 ,1770777539734.031,0,63012,0,47582
 ,1770777539734.031,0,63014,0,47572
 ,1770777539734.031,0,63002,0,47609
 ,1770777539734.031,0,62991,0,47590
 ,1770777539734.031,0,62985,0,47588
 ,1770777539734.031,0,62984,0,47597
 ,1770777539793.937,0,62986,0,47576
 ,1770777539793.937,0,62981,0,47573
 ,1770777539793.937,0,62945,0,47577
 ,1770777539793.937,0,62954,0,47552
 ,1770777539793.937,0,62948,0,47543
 ,1770777539793.937,0,62925,0,47536
 ,1770777539853.812,0,62941,0,47530
 ,1770777539853.812,0,62938,0,47542
 ,1770777539853.812,0,62927,0,47510
 ,1770777539853.812,0,62928,0,47501
 ,1770777539853.812,0,62911,0,47518
 ,1770777539853.812,0,62906,0,47519
 ,1770777539913.75,0,62926,0,47499
 ,1770777539913.75,0,62929,0,47519
 ,1770777539913.75,0,62906,0,47512
 ,1770777539913.75,0,62914,0,47500
 ,1770777539913.75,0,62906,0,47501
 ,1770777539913.75,0,62920,0,47491
 ,1770777539973.625,0,62912,0,47495
 ,1770777539973.625,0,62913,0,47491
 ,1770777539973.625,0,62910,0,47490
 ,1770777539973.625,0,62906,0,47504
 ,1770777539973.625,0,62891,0,47492
 ,1770777539973.625,0,62898,0,47488
 ,1770777540033.531,0,62891,0,47491
 ,1770777540033.531,0,62898,0,47480
 ,1770777540033.531,0,62897,0,47472
 ,1770777540033.531,0,62894,0,47464
 ,1770777540033.531,0,62899,0,47461
 ,1770777540033.531,0,62870,0,47454
 ,1770777540093.437,0,62897,0,47459
 ,1770777540093.437,0,62891,0,47470
 ,1770777540093.437,0,62890,0,47450
 ,1770777540093.437,0,62891,0,47464
 ,1770777540093.437,0,62897,0,47456
 ,1770777540093.437,0,62900,0,47475
 ,1770777540153.312,0,62884,0,47453
 ,1770777540153.312,0,62907,0,47468
 ,1770777540153.312,0,62901,0,47461
 ,1770777540153.312,0,62927,0,47456
 ,1770777540153.312,0,62917,0,47450
 ,1770777540153.312,0,62915,0,47457
 ,1770777540213.219,0,62934,0,47474
 ,1770777540213.219,0,62928,0,47459
 ,1770777540213.219,0,62932,0,47478
 ,1770777540213.219,0,62923,0,47473
 ,1770777540213.219,0,62925,0,47473
 ,1770777540213.219,0,62940,0,47486
 ,1770777540273.125,0,62952,0,47475
 ,1770777540273.125,0,62948,0,47483
 ,1770777540273.125,0,62982,0,47484
 ,1770777540273.125,0,62970,0,47483
 ,1770777540273.125,0,62987,0,47487
 ,1770777540273.125,0,62972,0,47498
 ,1770777540333.0,0,62970,0,47501
 ,1770777540333.0,0,62974,0,47499
 ,1770777540333.0,0,62979,0,47518
 ,1770777540333.0,0,62982,0,47491
 ,1770777540333.0,0,62990,0,47497
 ,1770777540333.0,0,62976,0,47508
 ,1770777540392.906,0,62958,0,47514
 ,1770777540392.906,0,62948,0,47515
 ,1770777540392.906,0,62953,0,47520
 ,1770777540392.906,0,62938,0,47504
 ,1770777540392.906,0,62941,0,47502
 ,1770777540392.906,0,62921,0,47483
 ,1770777540452.812,0,62901,0,47473
 ,1770777540452.812,0,62904,0,47472
 ,1770777540452.812,0,62900,0,47469
 ,1770777540452.812,0,62906,0,47454
 ,1770777540452.812,0,62868,0,47453
 ,1770777540452.812,0,62886,0,47452
 ,1770777540512.719,0,62868,0,47437
 ,1770777540512.719,0,62879,0,47441
 ,1770777540512.719,0,62862,0,47432
 ,1770777540512.719,0,62879,0,47417
 ,1770777540512.719,0,62865,0,47421
 ,1770777540512.719,0,62859,0,47423
 ,1770777540572.594,0,62863,0,47411
 ,1770777540572.594,0,62871,0,47432
 ,1770777540572.594,0,62876,0,47407
 ,1770777540572.594,0,62878,0,47410
 ,1770777540572.594,0,62869,0,47414
 ,1770777540572.594,0,62866,0,47396
 ,1770777540632.5632,0,62845,0,47416
 ,1770777540632.5632,0,62855,0,47407
 ,1770777540632.5632,0,62848,0,47397
 ,1770777540632.5632,0,62846,0,47395
 ,1770777540632.5632,0,62856,0,47395
 ,1770777540632.5632,0,62849,0,47394
 ,1770777540692.406,0,62865,0,47391
 ,1770777540692.406,0,62837,0,47396
 ,1770777540692.406,0,62831,0,47400
 ,1770777540692.406,0,62856,0,47397
 ,1770777540692.406,0,62835,0,47388
 ,1770777540692.406,0,62842,0,47406
 ,1770777540752.313,0,62851,0,47394
 ,1770777540752.313,0,62847,0,47385
 ,1770777540752.313,0,62841,0,47395
 ,1770777540752.313,0,62849,0,47386
 ,1770777540752.313,0,62864,0,47377
 ,1770777540752.313,0,62846,0,47383
 ,1770777540812.219,0,62853,0,47377
 ,1770777540812.219,0,62866,0,47381
 ,1770777540812.219,0,62857,0,47398
 ,1770777540812.219,0,62866,0,47405
 ,1770777540812.219,0,62882,0,47394
 ,1770777540812.219,0,62881,0,47379
 ,1770777540872.125,0,62882,0,47401
 ,1770777540872.125,0,62901,0,47402
 ,1770777540872.125,0,62874,0,47395
 ,1770777540872.125,0,62883,0,47397
 ,1770777540872.125,0,62897,0,47397
 ,1770777540872.125,0,62888,0,47398
 ,1770777540932.0,0,62900,0,47410
 ,1770777540932.0,0,62900,0,47403
 ,1770777540932.0,0,62912,0,47403
 ,1770777540932.0,0,62930,0,47412
 ,1770777540932.0,0,62921,0,47398
 ,1770777540932.0,0,62923,0,47399
 ,1770777540991.875,0,62934,0,47422
 ,1770777540991.875,0,62946,0,47427
 ,1770777540991.875,0,62944,0,47414
 ,1770777540991.875,0,62940,0,47438
 ,1770777540991.875,0,62918,0,47426
 ,1770777540991.875,0,62922,0,47429
 ,1770777541051.75,0,62920,0,47433
 ,1770777541051.75,0,62911,0,47435
 ,1770777541051.75,0,62877,0,47440
 ,1770777541051.75,0,62863,0,47427
 ,1770777541051.75,0,62855,0,47410
 ,1770777541051.75,0,62862,0,47411
 ,1770777541111.656,0,62850,0,47402
 ,1770777541111.656,0,62838,0,47398
 ,1770777541111.656,0,62835,0,47394
 ,1770777541111.656,0,62857,0,47391
 ,1770777541111.656,0,62827,0,47394
 ,1770777541111.656,0,62820,0,47378
 ,1770777541171.5,0,62830,0,47382
 ,1770777541171.5,0,62822,0,47366
 ,1770777541171.5,0,62817,0,47358
 ,1770777541171.5,0,62814,0,47356
 ,1770777541171.5,0,62802,0,47335
 ,1770777541171.5,0,62810,0,47343
 ,1770777541231.406,0,62802,0,47347
 ,1770777541231.406,0,62822,0,47342
 ,1770777541231.406,0,62795,0,47349
 ,1770777541231.406,0,62807,0,47358
 ,1770777541231.406,0,62797,0,47357
 ,1770777541231.406,0,62807,0,47335
 ,1770777541291.25,0,62812,0,47336
 ,1770777541291.25,0,62812,0,47329
 ,1770777541291.25,0,62776,0,47337
 ,1770777541291.25,0,62815,0,47337
 ,1770777541291.25,0,62769,0,47333
 ,1770777541291.25,0,62791,0,47331
 ,1770777541351.156,0,62793,0,47319
 ,1770777541351.156,0,62779,0,47327
 ,1770777541351.156,0,62797,0,47322
 ,1770777541351.156,0,62771,0,47330
 ,1770777541351.156,0,62785,0,47314
 ,1770777541351.156,0,62782,0,47322
 ,1770777541411.031,0,62786,0,47311
 ,1770777541411.031,0,62774,0,47313
 ,1770777541411.031,0,62788,0,47293
 ,1770777541411.031,0,62780,0,47309
 ,1770777541411.031,0,62792,0,47307
 ,1770777541411.031,0,62792,0,47327
 ,1770777541470.938,0,62795,0,47316
 ,1770777541470.938,0,62803,0,47306
 ,1770777541470.938,0,62785,0,47304
 ,1770777541470.938,0,62797,0,47317
 ,1770777541470.938,0,62786,0,47308
 ,1770777541470.938,0,62815,0,47308
 ,1770777541530.781,0,62810,0,47321
 ,1770777541530.781,0,62799,0,47329
 ,1770777541530.781,0,62824,0,47314
 ,1770777541530.781,0,62824,0,47315
 ,1770777541530.781,0,62823,0,47321
 ,1770777541530.781,0,62834,0,47331
 ,1770777541590.688,0,62827,0,47315
 ,1770777541590.688,0,62828,0,47331
 ,1770777541590.688,0,62821,0,47313
 ,1770777541590.688,0,62834,0,47326
 ,1770777541590.688,0,62864,0,47351
 ,1770777541590.688,0,62846,0,47347
 ,1770777541650.562,0,62860,0,47332
 ,1770777541650.562,0,62877,0,47336
 ,1770777541650.562,0,62864,0,47340
 ,1770777541650.562,0,62862,0,47352
 ,1770777541650.562,0,62869,0,47357
 ,1770777541650.562,0,62866,0,47378
 ,1770777541710.469,0,62869,0,47359
 ,1770777541710.469,0,62850,0,47368
 ,1770777541710.469,0,62845,0,47378
 ,1770777541710.469,0,62829,0,47361
 ,1770777541710.469,0,62822,0,47362
 ,1770777541710.469,0,62812,0,47353
 ,1770777541770.312,0,62810,0,47354
 ,1770777541770.312,0,62784,0,47366
 ,1770777541770.312,0,62782,0,47335
 ,1770777541770.312,0,62777,0,47334
 ,1770777541770.312,0,62785,0,47326
 ,1770777541770.312,0,62760,0,47313
 ,1770777541830.188,0,62775,0,47311
 ,1770777541830.188,0,62748,0,47307
 ,1770777541830.188,0,62767,0,47305
 ,1770777541830.188,0,62757,0,47302
 ,1770777541830.188,0,62747,0,47298
 ,1770777541830.188,0,62748,0,47300
 ,1770777541890.031,0,62755,0,47293
 ,1770777541890.031,0,62754,0,47277
 ,1770777541890.031,0,62728,0,47275
 ,1770777541890.031,0,62737,0,47298
 ,1770777541890.031,0,62747,0,47295
 ,1770777541890.031,0,62747,0,47285
 ,1770777541949.938,0,62755,0,47291
 ,1770777541949.938,0,62766,0,47277
 ,1770777541949.938,0,62738,0,47284
 ,1770777541949.938,0,62733,0,47276
 ,1770777541949.938,0,62729,0,47294
 ,1770777541949.938,0,62721,0,47283
 ,1770777542009.7808,0,62726,0,47279
 ,1770777542009.7808,0,62728,0,47284
 ,1770777542009.7808,0,62742,0,47289
 ,1770777542009.7808,0,62720,0,47279
 ,1770777542009.7808,0,62727,0,47258
 ,1770777542009.7808,0,62733,0,47271
 ,1770777542069.687,0,62724,0,47273
 ,1770777542069.687,0,62746,0,47271
 ,1770777542069.687,0,62736,0,47272
 ,1770777542069.687,0,62734,0,47277
 ,1770777542069.687,0,62741,0,47264
 ,1770777542069.687,0,62724,0,47270
 ,1770777542129.562,0,62728,0,47263
 ,1770777542129.562,0,62748,0,47286
 ,1770777542129.562,0,62742,0,47256
 ,1770777542129.562,0,62748,0,47261
 ,1770777542129.562,0,62748,0,47288
 ,1770777542129.562,0,62754,0,47277
 ,1770777542189.469,0,62749,0,47285
 ,1770777542189.469,0,62781,0,47273
 ,1770777542189.469,0,62757,0,47300
 ,1770777542189.469,0,62779,0,47288
 ,1770777542189.469,0,62760,0,47292
 ,1770777542189.469,0,62766,0,47297
 ,1770777542249.344,0,62782,0,47309
 ,1770777542249.344,0,62782,0,47286
 ,1770777542249.344,0,62789,0,47300
 ,1770777542249.344,0,62814,0,47299
 ,1770777542249.344,0,62808,0,47292
 ,1770777542249.344,0,62811,0,47307
 ,1770777542309.25,0,62828,0,47320
 ,1770777542309.25,0,62821,0,47327
 ,1770777542309.25,0,62817,0,47336
 ,1770777542309.25,0,62827,0,47319
 ,1770777542309.25,0,62838,0,47332
 ,1770777542309.25,0,62828,0,47330
 ,1770777542369.125,0,62845,0,47330
 ,1770777542369.125,0,62841,0,47344
 ,1770777542369.125,0,62842,0,47349
 ,1770777542369.125,0,62841,0,47362
 ,1770777542369.125,0,62835,0,47348
 ,1770777542369.125,0,62837,0,47365
 ,1770777542429.062,0,62803,0,47351
 ,1770777542429.062,0,62814,0,47356
 ,1770777542429.062,0,62791,0,47364
 ,1770777542429.062,0,62788,0,47368
 ,1770777542429.062,0,62780,0,47343
 ,1770777542429.062,0,62774,0,47352
 ,1770777542489.031,0,62769,0,47323
 ,1770777542489.031,0,62768,0,47319
 ,1770777542489.031,0,62750,0,47316
 ,1770777542489.031,0,62755,0,47333
 ,1770777542489.031,0,62752,0,47288
 ,1770777542489.031,0,62745,0,47315
 ,1770777542548.875,0,62741,0,47320
 ,1770777542548.875,0,62738,0,47312
 ,1770777542548.875,0,62739,0,47309
 ,1770777542548.875,0,62738,0,47293
 ,1770777542548.875,0,62735,0,47283
 ,1770777542548.875,0,62749,0,47290
 ,1770777542608.75,0,62744,0,47293
 ,1770777542608.75,0,62742,0,47284
 ,1770777542608.75,0,62741,0,47300
 ,1770777542608.75,0,62738,0,47294
 ,1770777542608.75,0,62732,0,47294
 ,1770777542608.75,0,62722,0,47304
 ,1770777542668.719,0,62737,0,47303
 ,1770777542668.719,0,62727,0,47301
 ,1770777542668.719,0,62706,0,47296
 ,1770777542668.719,0,62709,0,47292
 ,1770777542668.719,0,62715,0,47299
 ,1770777542668.719,0,62702,0,47290
 ,1770777542728.594,0,62717,0,47272
 ,1770777542728.594,0,62718,0,47297
 ,1770777542728.594,0,62719,0,47302
 ,1770777542728.594,0,62723,0,47299
 ,1770777542728.594,0,62701,0,47294
 ,1770777542728.594,0,62716,0,47291
 ,1770777542788.531,0,62717,0,47272
 ,1770777542788.531,0,62725,0,47280
 ,1770777542788.531,0,62722,0,47308
 ,1770777542788.531,0,62732,0,47276
 ,1770777542788.531,0,62734,0,47285
 ,1770777542788.531,0,62757,0,47289
 ,1770777542848.375,0,62727,0,47277
 ,1770777542848.375,0,62757,0,47285
 ,1770777542848.375,0,62747,0,47284
 ,1770777542848.375,0,62762,0,47283
 ,1770777542848.375,0,62762,0,47308
 ,1770777542848.375,0,62778,0,47303
 ,1770777542908.313,0,62762,0,47308
 ,1770777542908.313,0,62770,0,47307
 ,1770777542908.313,0,62786,0,47304
 ,1770777542908.313,0,62762,0,47326
 ,1770777542908.313,0,62772,0,47330
 ,1770777542908.313,0,62778,0,47328
 ,1770777542968.188,0,62804,0,47330
 ,1770777542968.188,0,62798,0,47326
 ,1770777542968.188,0,62817,0,47335
 ,1770777542968.188,0,62807,0,47328
 ,1770777542968.188,0,62815,0,47344
 ,1770777542968.188,0,62801,0,47354
 ,1770777543028.156,0,62828,0,47369
 ,1770777543028.156,0,62827,0,47347
 ,1770777543028.156,0,62791,0,47373
 ,1770777543028.156,0,62814,0,47383
 ,1770777543028.156,0,62794,0,47345
 ,1770777543028.156,0,62772,0,47354
 ,1770777543088.0,0,62754,0,47360
 ,1770777543088.0,0,62751,0,47372
 ,1770777543088.0,0,62757,0,47361
 ,1770777543088.0,0,62755,0,47348
 ,1770777543088.0,0,62752,0,47339
 ,1770777543088.0,0,62742,0,47346
 ,1770777543147.969,0,62727,0,47337
 ,1770777543147.969,0,62741,0,47341
 ,1770777543147.969,0,62735,0,47312
 ,1770777543147.969,0,62726,0,47327
 ,1770777543147.969,0,62731,0,47326
 ,1770777543147.969,0,62707,0,47312
 ,1770777543207.844,0,62713,0,47308
 ,1770777543207.844,0,62730,0,47301
 ,1770777543207.844,0,62718,0,47282
 ,1770777543207.844,0,62722,0,47303
 ,1770777543207.844,0,62715,0,47301
 ,1770777543207.844,0,62724,0,47294
 ,1770777543267.781,0,62721,0,47296
 ,1770777543267.781,0,62700,0,47303
 ,1770777543267.781,0,62711,0,47309
 ,1770777543267.781,0,62716,0,47305
 ,1770777543267.781,0,62716,0,47311
 ,1770777543267.781,0,62707,0,47314
 ,1770777543327.656,0,62700,0,47301
 ,1770777543327.656,0,62712,0,47302
 ,1770777543327.656,0,62717,0,47301
 ,1770777543327.656,0,62705,0,47301
 ,1770777543327.656,0,62696,0,47302
 ,1770777543327.656,0,62714,0,47301
 ,1770777543387.594,0,62709,0,47307
 ,1770777543387.594,0,62699,0,47297
 ,1770777543387.594,0,62705,0,47299
 ,1770777543387.594,0,62698,0,47306
 ,1770777543387.594,0,62713,0,47306
 ,1770777543387.594,0,62703,0,47294
 ,1770777543447.469,0,62712,0,47311
 ,1770777543447.469,0,62717,0,47318
 ,1770777543447.469,0,62728,0,47314
 ,1770777543447.469,0,62723,0,47301
 ,1770777543447.469,0,62715,0,47314
 ,1770777543447.469,0,62742,0,47300
 ,1770777543507.406,0,62744,0,47308
 ,1770777543507.406,0,62747,0,47303
 ,1770777543507.406,0,62734,0,47327
 ,1770777543507.406,0,62740,0,47314
 ,1770777543507.406,0,62750,0,47340
 ,1770777543507.406,0,62750,0,47330
 ,1770777543567.25,0,62770,0,47325
 ,1770777543567.25,0,62764,0,47331
 ,1770777543567.25,0,62763,0,47351
 ,1770777543567.25,0,62773,0,47343
 ,1770777543567.25,0,62793,0,47343
 ,1770777543567.25,0,62794,0,47347
 ,1770777543627.188,0,62791,0,47335
 ,1770777543627.188,0,62797,0,47351
 ,1770777543627.188,0,62795,0,47354
 ,1770777543627.188,0,62808,0,47369
 ,1770777543627.188,0,62806,0,47375
 ,1770777543627.188,0,62817,0,47365
 ,1770777543687.063,0,62801,0,47394
 ,1770777543687.063,0,62771,0,47378
 ,1770777543687.063,0,62768,0,47382
 ,1770777543687.063,0,62764,0,47383
 ,1770777543687.063,0,62765,0,47384
 ,1770777543687.063,0,62749,0,47378
 ,1770777543746.969,0,62749,0,47367
 ,1770777543746.969,0,62711,0,47359
 ,1770777543746.969,0,62720,0,47357
 ,1770777543746.969,0,62720,0,47340
 ,1770777543746.969,0,62714,0,47339
 ,1770777543746.969,0,62702,0,47319
 ,1770777543806.875,0,62669,0,47331
 ,1770777543806.875,0,62689,0,47334
 ,1770777543806.875,0,62671,0,47331
 ,1770777543806.875,0,62662,0,47325
 ,1770777543806.875,0,62658,0,47315
 ,1770777543806.875,0,62666,0,47314
 ,1770777543866.781,0,62652,0,47300
 ,1770777543866.781,0,62651,0,47322
 ,1770777543866.781,0,62656,0,47305
 ,1770777543866.781,0,62638,0,47293
 ,1770777543866.781,0,62643,0,47287
 ,1770777543866.781,0,62637,0,47294
 ,1770777543926.656,0,62646,0,47299
 ,1770777543926.656,0,62639,0,47281
 ,1770777543926.656,0,62644,0,47284
 ,1770777543926.656,0,62633,0,47295
 ,1770777543926.656,0,62601,0,47285
 ,1770777543926.656,0,62600,0,47285
 ,1770777543986.594,0,62611,0,47289
 ,1770777543986.594,0,62615,0,47292
 ,1770777543986.594,0,62621,0,47275
 ,1770777543986.594,0,62595,0,47279
 ,1770777543986.594,0,62613,0,47278
 ,1770777543986.594,0,62582,0,47267
 ,1770777544046.469,0,62580,0,47290
 ,1770777544046.469,0,62585,0,47273
 ,1770777544046.469,0,62602,0,47258
 ,1770777544046.469,0,62607,0,47270
 ,1770777544046.469,0,62596,0,47270
 ,1770777544046.469,0,62602,0,47265
 ,1770777544106.406,0,62595,0,47272
 ,1770777544106.406,0,62597,0,47265
 ,1770777544106.406,0,62599,0,47270
 ,1770777544106.406,0,62616,0,47272
 ,1770777544106.406,0,62615,0,47280
 ,1770777544106.406,0,62618,0,47274
 ,1770777544166.219,0,62628,0,47284
 ,1770777544166.219,0,62618,0,47277
 ,1770777544166.219,0,62632,0,47300
 ,1770777544166.219,0,62615,0,47298
 ,1770777544166.219,0,62631,0,47289
 ,1770777544166.219,0,62617,0,47288
 ,1770777544226.125,0,62634,0,47290
 ,1770777544226.125,0,62637,0,47299
 ,1770777544226.125,0,62654,0,47302
 ,1770777544226.125,0,62669,0,47311
 ,1770777544226.125,0,62633,0,47316
 ,1770777544226.125,0,62663,0,47304
 ,1770777544286.0,0,62656,0,47302
 ,1770777544286.0,0,62663,0,47316
 ,1770777544286.0,0,62669,0,47325
 ,1770777544286.0,0,62658,0,47328
 ,1770777544286.0,0,62644,0,47336
 ,1770777544286.0,0,62668,0,47324
 ,1770777544345.906,0,62653,0,47319
 ,1770777544345.906,0,62655,0,47341
 ,1770777544345.906,0,62631,0,47345
 ,1770777544345.906,0,62621,0,47330
 ,1770777544345.906,0,62610,0,47343
 ,1770777544345.906,0,62599,0,47333
 ,1770777544405.75,0,62595,0,47322
 ,1770777544405.75,0,62577,0,47325
 ,1770777544405.75,0,62577,0,47308
 ,1770777544405.75,0,62559,0,47305
 ,1770777544405.75,0,62549,0,47306
 ,1770777544405.75,0,62559,0,47283
 ,1770777544465.719,0,62524,0,47284
 ,1770777544465.719,0,62514,0,47272
 ,1770777544465.719,0,62531,0,47277
 ,1770777544465.719,0,62527,0,47275
 ,1770777544465.719,0,62520,0,47261
 ,1770777544465.719,0,62508,0,47252
 ,1770777544525.562,0,62511,0,47248
 ,1770777544525.562,0,62500,0,47256
 ,1770777544525.562,0,62504,0,47254
 ,1770777544525.562,0,62505,0,47239
 ,1770777544525.562,0,62490,0,47245
 ,1770777544525.562,0,62479,0,47237
 ,1770777544585.531,0,62478,0,47232
 ,1770777544585.531,0,62481,0,47240
 ,1770777544585.531,0,62461,0,47255
 ,1770777544585.531,0,62473,0,47240
 ,1770777544585.531,0,62474,0,47234
 ,1770777544585.531,0,62479,0,47239
 ,1770777544645.375,0,62456,0,47234
 ,1770777544645.375,0,62453,0,47235
 ,1770777544645.375,0,62450,0,47234
 ,1770777544645.375,0,62443,0,47241
 ,1770777544645.375,0,62437,0,47225
 ,1770777544645.375,0,62452,0,47234
 ,1770777544705.313,0,62445,0,47215
 ,1770777544705.313,0,62426,0,47212
 ,1770777544705.313,0,62440,0,47226
 ,1770777544705.313,0,62439,0,47229
 ,1770777544705.313,0,62452,0,47237
 ,1770777544705.313,0,62463,0,47212
 ,1770777544765.219,0,62437,0,47216
 ,1770777544765.219,0,62453,0,47231
 ,1770777544765.219,0,62456,0,47228
 ,1770777544765.219,0,62448,0,47218
 ,1770777544765.219,0,62455,0,47227
 ,1770777544765.219,0,62464,0,47236
 ,1770777544825.156,0,62463,0,47233
 ,1770777544825.156,0,62458,0,47219
 ,1770777544825.156,0,62477,0,47232
 ,1770777544825.156,0,62471,0,47230
 ,1770777544825.156,0,62467,0,47229
 ,1770777544825.156,0,62486,0,47254
 ,1770777544885.031,0,62489,0,47217
 ,1770777544885.031,0,62503,0,47257
 ,1770777544885.031,0,62499,0,47256
 ,1770777544885.031,0,62494,0,47253
 ,1770777544885.031,0,62501,0,47245
 ,1770777544885.031,0,62493,0,47265
 ,1770777544944.937,0,62490,0,47273
 ,1770777544944.937,0,62522,0,47279
 ,1770777544944.937,0,62524,0,47284
 ,1770777544944.937,0,62516,0,47273
 ,1770777544944.937,0,62518,0,47271
 ,1770777544944.937,0,62524,0,47301
 ,1770777545004.844,0,62515,0,47274
 ,1770777545004.844,0,62517,0,47299
 ,1770777545004.844,0,62513,0,47295
 ,1770777545004.844,0,62477,0,47287
 ,1770777545004.844,0,62473,0,47302
 ,1770777545004.844,0,62474,0,47301
 ,1770777545064.813,0,62449,0,47279
 ,1770777545064.813,0,62457,0,47288
 ,1770777545064.813,0,62440,0,47294
 ,1770777545064.813,0,62430,0,47282
 ,1770777545064.813,0,62419,0,47276
 ,1770777545064.813,0,62419,0,47256
 ,1770777545124.687,0,62407,0,47254
 ,1770777545124.687,0,62399,0,47232
 ,1770777545124.687,0,62378,0,47251
 ,1770777545124.687,0,62363,0,47248
 ,1770777545124.687,0,62377,0,47249
 ,1770777545124.687,0,62359,0,47237
 ,1770777545184.594,0,62372,0,47218
 ,1770777545184.594,0,62360,0,47234
 ,1770777545184.594,0,62355,0,47225
 ,1770777545184.594,0,62369,0,47228
 ,1770777545184.594,0,62370,0,47208
 ,1770777545184.594,0,62371,0,47204
 ,1770777545244.5,0,62369,0,47216
 ,1770777545244.5,0,62343,0,47226
 ,1770777545244.5,0,62374,0,47217
 ,1770777545244.5,0,62372,0,47205
 ,1770777545244.5,0,62366,0,47214
 ,1770777545244.5,0,62347,0,47222
 ,1770777545304.406,0,62357,0,47208
 ,1770777545304.406,0,62343,0,47215
 ,1770777545304.406,0,62321,0,47225
 ,1770777545304.406,0,62328,0,47229
 ,1770777545304.406,0,62336,0,47213
 ,1770777545304.406,0,62331,0,47209
 ,1770777545364.313,0,62329,0,47220
 ,1770777545364.313,0,62332,0,47211
 ,1770777545364.313,0,62329,0,47194
 ,1770777545364.313,0,62318,0,47215
 ,1770777545364.313,0,62339,0,47204
 ,1770777545364.313,0,62315,0,47220
 ,1770777545424.219,0,62346,0,47195
 ,1770777545424.219,0,62327,0,47204
 ,1770777545424.219,0,62334,0,47224
 ,1770777545424.219,0,62348,0,47203
 ,1770777545424.219,0,62342,0,47207
 ,1770777545424.219,0,62330,0,47195
 ,1770777545484.094,0,62362,0,47202
 ,1770777545484.094,0,62356,0,47209
 ,1770777545484.094,0,62368,0,47219
 ,1770777545484.094,0,62361,0,47209
 ,1770777545484.094,0,62394,0,47222
 ,1770777545484.094,0,62382,0,47223
 ,1770777545544.0,0,62362,0,47219
 ,1770777545544.0,0,62357,0,47223
 ,1770777545544.0,0,62388,0,47226
 ,1770777545544.0,0,62388,0,47247
 ,1770777545544.0,0,62387,0,47243
 ,1770777545544.0,0,62388,0,47247
 ,1770777545603.875,0,62401,0,47247
 ,1770777545603.875,0,62417,0,47247
 ,1770777545603.875,0,62431,0,47246
 ,1770777545603.875,0,62435,0,47260
 ,1770777545603.875,0,62423,0,47252
 ,1770777545603.875,0,62444,0,47260
 ,1770777545663.781,0,62442,0,47261
 ,1770777545663.781,0,62456,0,47271
 ,1770777545663.781,0,62440,0,47275
 ,1770777545663.781,0,62445,0,47281
 ,1770777545663.781,0,62427,0,47265
 ,1770777545663.781,0,62442,0,47291
 ,1770777545723.688,0,62431,0,47293
 ,1770777545723.688,0,62412,0,47288
 ,1770777545723.688,0,62389,0,47299
 ,1770777545723.688,0,62397,0,47290
 ,1770777545723.688,0,62380,0,47280
 ,1770777545723.688,0,62381,0,47280
 ,1770777545783.563,0,62353,0,47272
 ,1770777545783.563,0,62360,0,47277
 ,1770777545783.563,0,62354,0,47266
 ,1770777545783.563,0,62337,0,47246
 ,1770777545783.563,0,62307,0,47257
 ,1770777545783.563,0,62349,0,47237
 ,1770777545843.469,0,62351,0,47231
 ,1770777545843.469,0,62336,0,47236
 ,1770777545843.469,0,62334,0,47225
 ,1770777545843.469,0,62312,0,47225
 ,1770777545843.469,0,62308,0,47228
 ,1770777545843.469,0,62328,0,47217
 ,1770777545903.344,0,62315,0,47214
 ,1770777545903.344,0,62316,0,47232
 ,1770777545903.344,0,62328,0,47224
 ,1770777545903.344,0,62315,0,47217
 ,1770777545903.344,0,62320,0,47207
 ,1770777545903.344,0,62320,0,47212
 ,1770777545963.25,0,62304,0,47220
 ,1770777545963.25,0,62293,0,47215
 ,1770777545963.25,0,62294,0,47223
 ,1770777545963.25,0,62290,0,47227
 ,1770777545963.25,0,62291,0,47231
 ,1770777545963.25,0,62296,0,47212
 ,1770777546023.1882,0,62299,0,47215
 ,1770777546023.1882,0,62279,0,47230
 ,1770777546023.1882,0,62270,0,47220
 ,1770777546023.1882,0,62285,0,47205
 ,1770777546023.1882,0,62287,0,47212
 ,1770777546023.1882,0,62281,0,47218
 ,1770777546083.063,0,62291,0,47208
 ,1770777546083.063,0,62280,0,47203
 ,1770777546083.063,0,62274,0,47214
 ,1770777546083.063,0,62307,0,47216
 ,1770777546083.063,0,62301,0,47224
 ,1770777546083.063,0,62306,0,47219
 ,1770777546143.0,0,62282,0,47219
 ,1770777546143.0,0,62290,0,47214
 ,1770777546143.0,0,62314,0,47223
 ,1770777546143.0,0,62315,0,47217
 ,1770777546143.0,0,62317,0,47223
 ,1770777546143.0,0,62323,0,47229
 ,1770777546202.875,0,62326,0,47227
 ,1770777546202.875,0,62335,0,47231
 ,1770777546202.875,0,62328,0,47245
 ,1770777546202.875,0,62339,0,47239
 ,1770777546202.875,0,62350,0,47227
 ,1770777546202.875,0,62362,0,47236
 ,1770777546262.781,0,62354,0,47245
 ,1770777546262.781,0,62368,0,47263
 ,1770777546262.781,0,62368,0,47253
 ,1770777546262.781,0,62376,0,47245
 ,1770777546262.781,0,62378,0,47245
 ,1770777546262.781,0,62378,0,47281
 ,1770777546322.656,0,62377,0,47274
 ,1770777546322.656,0,62392,0,47265
 ,1770777546322.656,0,62392,0,47275
 ,1770777546322.656,0,62370,0,47273
 ,1770777546322.656,0,62344,0,47282
 ,1770777546322.656,0,62343,0,47293
 ,1770777546382.594,0,62353,0,47281
 ,1770777546382.594,0,62340,0,47287
 ,1770777546382.594,0,62314,0,47271
 ,1770777546382.594,0,62313,0,47255
 ,1770777546382.594,0,62286,0,47249
 ,1770777546382.594,0,62289,0,47244
 ,1770777546442.5,0,62277,0,47253
 ,1770777546442.5,0,62286,0,47230
 ,1770777546442.5,0,62264,0,47241
 ,1770777546442.5,0,62277,0,47231
 ,1770777546442.5,0,62263,0,47212
 ,1770777546442.5,0,62260,0,47210
 ,1770777546502.4058,0,62248,0,47208
 ,1770777546502.4058,0,62248,0,47215
 ,1770777546502.4058,0,62248,0,47214
 ,1770777546502.4058,0,62247,0,47224
 ,1770777546502.4058,0,62253,0,47212
 ,1770777546502.4058,0,62236,0,47202
 ,1770777546562.3118,0,62237,0,47206
 ,1770777546562.3118,0,62231,0,47187
 ,1770777546562.3118,0,62245,0,47199
 ,1770777546562.3118,0,62251,0,47208
 ,1770777546562.3118,0,62240,0,47200
 ,1770777546562.3118,0,62235,0,47220
 ,1770777546622.219,0,62226,0,47200
 ,1770777546622.219,0,62215,0,47202
 ,1770777546622.219,0,62224,0,47217
 ,1770777546622.219,0,62219,0,47207
 ,1770777546622.219,0,62210,0,47206
 ,1770777546622.219,0,62211,0,47202
 ,1770777546682.125,0,62208,0,47184
 ,1770777546682.125,0,62209,0,47197
 ,1770777546682.125,0,62207,0,47195
 ,1770777546682.125,0,62208,0,47181
 ,1770777546682.125,0,62208,0,47190
 ,1770777546682.125,0,62207,0,47188
 ,1770777546741.969,0,62197,0,47161
 ,1770777546741.969,0,62213,0,47178
 ,1770777546741.969,0,62221,0,47185
 ,1770777546741.969,0,62230,0,47184
 ,1770777546741.969,0,62225,0,47190
 ,1770777546741.969,0,62217,0,47190
 ,1770777546801.875,0,62226,0,47185
 ,1770777546801.875,0,62243,0,47186
 ,1770777546801.875,0,62245,0,47195
 ,1770777546801.875,0,62245,0,47193
 ,1770777546801.875,0,62247,0,47185
 ,1770777546801.875,0,62241,0,47187
 ,1770777546861.75,0,62258,0,47206
 ,1770777546861.75,0,62267,0,47183
 ,1770777546861.75,0,62258,0,47204
 ,1770777546861.75,0,62261,0,47202
 ,1770777546861.75,0,62279,0,47211
 ,1770777546861.75,0,62273,0,47221
 ,1770777546921.625,0,62286,0,47215
 ,1770777546921.625,0,62284,0,47221
 ,1770777546921.625,0,62320,0,47230
 ,1770777546921.625,0,62315,0,47245
 ,1770777546921.625,0,62328,0,47220
 ,1770777546921.625,0,62289,0,47233
 ,1770777546981.531,0,62335,0,47231
 ,1770777546981.531,0,62325,0,47230
 ,1770777546981.531,0,62301,0,47232
 ,1770777546981.531,0,62288,0,47241
 ,1770777546981.531,0,62298,0,47250
 ,1770777546981.531,0,62269,0,47236
 ,1770777547041.406,0,62265,0,47241
 ,1770777547041.406,0,62258,0,47227
 ,1770777547041.406,0,62244,0,47239
 ,1770777547041.406,0,62234,0,47238
 ,1770777547041.406,0,62208,0,47225
 ,1770777547041.406,0,62209,0,47219
 ,1770777547101.281,0,62201,0,47212
 ,1770777547101.281,0,62207,0,47186
 ,1770777547101.281,0,62177,0,47181
 ,1770777547101.281,0,62170,0,47195
 ,1770777547101.281,0,62183,0,47195
 ,1770777547101.281,0,62177,0,47164
 ,1770777547161.219,0,62176,0,47192
 ,1770777547161.219,0,62160,0,47169
 ,1770777547161.219,0,62156,0,47187
 ,1770777547161.219,0,62176,0,47170
 ,1770777547161.219,0,62162,0,47154
 ,1770777547161.219,0,62176,0,47148
 ,1770777547221.063,0,62161,0,47159
 ,1770777547221.063,0,62181,0,47165
 ,1770777547221.063,0,62155,0,47156
 ,1770777547221.063,0,62150,0,47165
 ,1770777547221.063,0,62148,0,47148
 ,1770777547221.063,0,62163,0,47154
 ,1770777547280.969,0,62169,0,47135
 ,1770777547280.969,0,62146,0,47165
 ,1770777547280.969,0,62144,0,47151
 ,1770777547280.969,0,62152,0,47150
 ,1770777547280.969,0,62132,0,47142
 ,1770777547280.969,0,62144,0,47137
 ,1770777547340.875,0,62136,0,47132
 ,1770777547340.875,0,62129,0,47136
 ,1770777547340.875,0,62130,0,47129
 ,1770777547340.875,0,62134,0,47137
 ,1770777547340.875,0,62133,0,47137
 ,1770777547340.875,0,62123,0,47135
 ,1770777547400.75,0,62113,0,47128
 ,1770777547400.75,0,62127,0,47131
 ,1770777547400.75,0,62132,0,47137
 ,1770777547400.75,0,62135,0,47126
 ,1770777547400.75,0,62146,0,47138
 ,1770777547400.75,0,62137,0,47112
 ,1770777547460.656,0,62141,0,47124
 ,1770777547460.656,0,62143,0,47134
 ,1770777547460.656,0,62148,0,47119
 ,1770777547460.656,0,62153,0,47141
 ,1770777547460.656,0,62150,0,47148
 ,1770777547460.656,0,62175,0,47143
 ,1770777547520.531,0,62163,0,47158
 ,1770777547520.531,0,62184,0,47144
 ,1770777547520.531,0,62158,0,47144
 ,1770777547520.531,0,62184,0,47144
 ,1770777547520.531,0,62169,0,47153
 ,1770777547520.531,0,62186,0,47159
 ,1770777547580.438,0,62207,0,47162
 ,1770777547580.438,0,62199,0,47182
 ,1770777547580.438,0,62204,0,47161
 ,1770777547580.438,0,62207,0,47165
 ,1770777547580.438,0,62203,0,47181
 ,1770777547580.438,0,62195,0,47164
 ,1770777547640.312,0,62200,0,47175
 ,1770777547640.312,0,62197,0,47191
 ,1770777547640.312,0,62174,0,47178
 ,1770777547640.312,0,62157,0,47186
 ,1770777547640.312,0,62160,0,47185
 ,1770777547640.312,0,62149,0,47184
 ,1770777547700.219,0,62154,0,47158
 ,1770777547700.219,0,62130,0,47167
 ,1770777547700.219,0,62120,0,47171
 ,1770777547700.219,0,62123,0,47159
 ,1770777547700.219,0,62098,0,47149
 ,1770777547700.219,0,62094,0,47128
 ,1770777547760.125,0,62092,0,47134
 ,1770777547760.125,0,62078,0,47129
 ,1770777547760.125,0,62086,0,47111
 ,1770777547760.125,0,62072,0,47108
 ,1770777547760.125,0,62071,0,47108
 ,1770777547760.125,0,62052,0,47100
 ,1770777547820.031,0,62068,0,47107
 ,1770777547820.031,0,62058,0,47086
 ,1770777547820.031,0,62056,0,47079
 ,1770777547820.031,0,62059,0,47089
 ,1770777547820.031,0,62067,0,47090
 ,1770777547820.031,0,62047,0,47098
 ,1770777547879.906,0,62045,0,47080
 ,1770777547879.906,0,62060,0,47096
 ,1770777547879.906,0,62045,0,47080
 ,1770777547879.906,0,62026,0,47090
 ,1770777547879.906,0,62009,0,47081
 ,1770777547879.906,0,62028,0,47086
 ,1770777547939.844,0,62043,0,47063
 ,1770777547939.844,0,62022,0,47070
 ,1770777547939.844,0,62019,0,47074
 ,1770777547939.844,0,62006,0,47067
 ,1770777547939.844,0,62020,0,47069
 ,1770777547939.844,0,62021,0,47054
 ,1770777547999.75,0,62008,0,47066
 ,1770777547999.75,0,62001,0,47034
 ,1770777547999.75,0,61998,0,47051
 ,1770777547999.75,0,62023,0,47061
 ,1770777547999.75,0,62006,0,47057
 ,1770777547999.75,0,62005,0,47053
 ,1770777548059.656,0,62014,0,47060
 ,1770777548059.656,0,62007,0,47058
 ,1770777548059.656,0,62029,0,47037
 ,1770777548059.656,0,62008,0,47068
 ,1770777548059.656,0,62024,0,47055
 ,1770777548059.656,0,62017,0,47052
 ,1770777548119.531,0,62032,0,47066
 ,1770777548119.531,0,62040,0,47073
 ,1770777548119.531,0,62022,0,47073
 ,1770777548119.531,0,62037,0,47054
 ,1770777548119.531,0,62066,0,47075
 ,1770777548119.531,0,62057,0,47054
 ,1770777548179.4382,0,62032,0,47066
 ,1770777548179.4382,0,62065,0,47065
 ,1770777548179.4382,0,62048,0,47074
 ,1770777548179.4382,0,62058,0,47078
 ,1770777548179.4382,0,62065,0,47087
 ,1770777548179.4382,0,62087,0,47096
 ,1770777548239.375,0,62061,0,47093
 ,1770777548239.375,0,62084,0,47069
 ,1770777548239.375,0,62090,0,47092
 ,1770777548239.375,0,62103,0,47101
 ,1770777548239.375,0,62085,0,47099
 ,1770777548239.375,0,62088,0,47101
 ,1770777548299.2808,0,62091,0,47091
 ,1770777548299.2808,0,62063,0,47110
 ,1770777548299.2808,0,62049,0,47111
 ,1770777548299.2808,0,62055,0,47110
 ,1770777548299.2808,0,62033,0,47116
 ,1770777548299.2808,0,62014,0,47098
 ,1770777548359.1868,0,62016,0,47085
 ,1770777548359.1868,0,61995,0,47094
 ,1770777548359.1868,0,61986,0,47092
 ,1770777548359.1868,0,61986,0,47075
 ,1770777548359.1868,0,61966,0,47066
 ,1770777548359.1868,0,61963,0,47065
 ,1770777548419.094,0,61959,0,47048
 ,1770777548419.094,0,61966,0,47041
 ,1770777548419.094,0,61948,0,47052
 ,1770777548419.094,0,61933,0,47038
 ,1770777548419.094,0,61940,0,47047
 ,1770777548419.094,0,61943,0,47029
 ,1770777548479.0,0,61935,0,47039
 ,1770777548479.0,0,61943,0,47025
 ,1770777548479.0,0,61921,0,47029
 ,1770777548479.0,0,61946,0,47016
 ,1770777548479.0,0,61924,0,47028
 ,1770777548479.0,0,61936,0,47012
 ,1770777548538.906,0,61933,0,47020
 ,1770777548538.906,0,61910,0,47012
 ,1770777548538.906,0,61929,0,47019
 ,1770777548538.906,0,61910,0,47015
 ,1770777548538.906,0,61930,0,47003
 ,1770777548538.906,0,61909,0,47000
 ,1770777548598.813,0,61898,0,46983
 ,1770777548598.813,0,61899,0,47001
 ,1770777548598.813,0,61903,0,46984
 ,1770777548598.813,0,61874,0,46998
 ,1770777548598.813,0,61891,0,46988
 ,1770777548598.813,0,61891,0,47000
 ,1770777548658.75,0,61901,0,46971
 ,1770777548658.75,0,61895,0,46987
 ,1770777548658.75,0,61891,0,46995
 ,1770777548658.75,0,61899,0,46982
 ,1770777548658.75,0,61908,0,46967
 ,1770777548658.75,0,61903,0,46986
 ,1770777548718.5618,0,61893,0,46977
 ,1770777548718.5618,0,61909,0,46973
 ,1770777548718.5618,0,61907,0,46973
 ,1770777548718.5618,0,61925,0,46976
 ,1770777548718.5618,0,61920,0,46986
 ,1770777548718.5618,0,61899,0,46981
 ,1770777548778.5,0,61919,0,46995
 ,1770777548778.5,0,61928,0,46970
 ,1770777548778.5,0,61930,0,46985
 ,1770777548778.5,0,61940,0,47002
 ,1770777548778.5,0,61940,0,46979
 ,1770777548778.5,0,61945,0,46992
 ,1770777548838.312,0,61959,0,47001
 ,1770777548838.312,0,61952,0,47002
 ,1770777548838.312,0,61969,0,46997
 ,1770777548838.312,0,61956,0,46987
 ,1770777548838.312,0,61978,0,47021
 ,1770777548838.312,0,61965,0,47022
 ,1770777548898.156,0,61977,0,47008
 ,1770777548898.156,0,61993,0,47003
 ,1770777548898.156,0,61967,0,47044
 ,1770777548898.156,0,61972,0,47035
 ,1770777548898.156,0,61959,0,47033
 ,1770777548898.156,0,61958,0,47027
 ,1770777548958.063,0,61953,0,47009
 ,1770777548958.063,0,61943,0,47016
 ,1770777548958.063,0,61923,0,47036
 ,1770777548958.063,0,61906,0,47025
 ,1770777548958.063,0,61911,0,47023
 ,1770777548958.063,0,61891,0,47002
 ,1770777549018.0,0,61884,0,46996
 ,1770777549018.0,0,61871,0,46985
 ,1770777549018.0,0,61881,0,47004
 ,1770777549018.0,0,61875,0,46974
 ,1770777549018.0,0,61875,0,46969
 ,1770777549018.0,0,61871,0,46975
 ,1770777549077.906,0,61875,0,46937
 ,1770777549077.906,0,61855,0,46950
 ,1770777549077.906,0,61863,0,46961
 ,1770777549077.906,0,61862,0,46962
 ,1770777549077.906,0,61859,0,46948
 ,1770777549077.906,0,61856,0,46934
 ,1770777549137.812,0,61872,0,46935
 ,1770777549137.812,0,61844,0,46950
 ,1770777549137.812,0,61868,0,46953
 ,1770777549137.812,0,61873,0,46961
 ,1770777549137.812,0,61878,0,46953
 ,1770777549137.812,0,61865,0,46947
 ,1770777549197.719,0,61850,0,46936
 ,1770777549197.719,0,61861,0,46965
 ,1770777549197.719,0,61840,0,46943
 ,1770777549197.719,0,61846,0,46946
 ,1770777549197.719,0,61854,0,46941
 ,1770777549197.719,0,61864,0,46944
 ,1770777549257.656,0,61851,0,46938
 ,1770777549257.656,0,61857,0,46936
 ,1770777549257.656,0,61853,0,46925
 ,1770777549257.656,0,61865,0,46928
 ,1770777549257.656,0,61864,0,46918
 ,1770777549257.656,0,61872,0,46928
 ,1770777549317.531,0,61873,0,46917
 ,1770777549317.531,0,61880,0,46928
 ,1770777549317.531,0,61883,0,46943
 ,1770777549317.531,0,61880,0,46942
 ,1770777549317.531,0,61898,0,46938
 ,1770777549317.531,0,61901,0,46947
 ,1770777549377.469,0,61902,0,46935
 ,1770777549377.469,0,61929,0,46950
 ,1770777549377.469,0,61912,0,46935
 ,1770777549377.469,0,61930,0,46936
 ,1770777549377.469,0,61903,0,46948
 ,1770777549377.469,0,61912,0,46957
 ,1770777549437.375,0,61934,0,46958
 ,1770777549437.375,0,61940,0,46955
 ,1770777549437.375,0,61941,0,46966
 ,1770777549437.375,0,61949,0,46965
 ,1770777549437.375,0,61945,0,46965
 ,1770777549437.375,0,61951,0,46968
 ,1770777549497.344,0,61968,0,46971
 ,1770777549497.344,0,61968,0,46973
 ,1770777549497.344,0,61953,0,46980
 ,1770777549497.344,0,61966,0,46977
 ,1770777549497.344,0,61952,0,46982
 ,1770777549497.344,0,61955,0,46986
 ,1770777549557.25,0,61952,0,46996
 ,1770777549557.25,0,61940,0,46998
 ,1770777549557.25,0,61912,0,46997
 ,1770777549557.25,0,61908,0,46988
 ,1770777549557.25,0,61886,0,46970
 ,1770777549557.25,0,61864,0,46949
 ,1770777549617.219,0,61858,0,46956
 ,1770777549617.219,0,61856,0,46946
 ,1770777549617.219,0,61844,0,46941
 ,1770777549617.219,0,61826,0,46938
 ,1770777549617.219,0,61829,0,46939
 ,1770777549617.219,0,61827,0,46935
 ,1770777549677.062,0,61818,0,46900
 ,1770777549677.062,0,61806,0,46908
 ,1770777549677.062,0,61808,0,46912
 ,1770777549677.062,0,61805,0,46907
 ,1770777549677.062,0,61782,0,46873
 ,1770777549677.062,0,61789,0,46882
 ,1770777549737.0,0,61793,0,46872
 ,1770777549737.0,0,61773,0,46864
 ,1770777549737.0,0,61781,0,46863
 ,1770777549737.0,0,61786,0,46851
 ,1770777549737.0,0,61790,0,46880
 ,1770777549737.0,0,61794,0,46867
 ,1770777549796.875,0,61766,0,46864
 ,1770777549796.875,0,61774,0,46842
 ,1770777549796.875,0,61775,0,46867
 ,1770777549796.875,0,61776,0,46860
 ,1770777549796.875,0,61756,0,46855
 ,1770777549796.875,0,61747,0,46860
 ,1770777549856.781,0,61766,0,46853
 ,1770777549856.781,0,61745,0,46865
 ,1770777549856.781,0,61748,0,46847
 ,1770777549856.781,0,61739,0,46858
 ,1770777549856.781,0,61747,0,46860
 ,1770777549856.781,0,61776,0,46852
 ,1770777549916.656,0,61762,0,46821
 ,1770777549916.656,0,61754,0,46833
 ,1770777549916.656,0,61750,0,46824
 ,1770777549916.656,0,61766,0,46817
 ,1770777549916.656,0,61754,0,46819
 ,1770777549916.656,0,61763,0,46828
 ,1770777549976.562,0,61769,0,46830
 ,1770777549976.562,0,61788,0,46816
 ,1770777549976.562,0,61765,0,46828
 ,1770777549976.562,0,61767,0,46821
 ,1770777549976.562,0,61772,0,46833
 ,1770777549976.562,0,61783,0,46827
 ,1770777550036.437,0,61804,0,46850
 ,1770777550036.437,0,61793,0,46839
 ,1770777550036.437,0,61801,0,46840
 ,1770777550036.437,0,61815,0,46849
 ,1770777550036.437,0,61809,0,46852
 ,1770777550036.437,0,61806,0,46845
 ,1770777550096.344,0,61824,0,46837
 ,1770777550096.344,0,61833,0,46862
 ,1770777550096.344,0,61844,0,46858
 ,1770777550096.344,0,61828,0,46869
 ,1770777550096.344,0,61836,0,46858
 ,1770777550096.344,0,61864,0,46854
 ,1770777550156.219,0,61849,0,46866
 ,1770777550156.219,0,61839,0,46872
 ,1770777550156.219,0,61839,0,46876
 ,1770777550156.219,0,61811,0,46869
 ,1770777550156.219,0,61793,0,46881
 ,1770777550156.219,0,61799,0,46864
 ,1770777550216.125,0,61796,0,46872
 ,1770777550216.125,0,61756,0,46869
 ,1770777550216.125,0,61740,0,46851
 ,1770777550216.125,0,61751,0,46860
 ,1770777550216.125,0,61711,0,46824
 ,1770777550216.125,0,61719,0,46834
 ,1770777550276.031,0,61713,0,46828
 ,1770777550276.031,0,61690,0,46836
 ,1770777550276.031,0,61706,0,46819
 ,1770777550276.031,0,61691,0,46799
 ,1770777550276.031,0,61680,0,46813
 ,1770777550276.031,0,61670,0,46786
 ,1770777550335.906,0,61661,0,46793
 ,1770777550335.906,0,61665,0,46776
 ,1770777550335.906,0,61678,0,46787
 ,1770777550335.906,0,61657,0,46772
 ,1770777550335.906,0,61662,0,46758
 ,1770777550335.906,0,61672,0,46759
 ,1770777550395.781,0,61645,0,46771
 ,1770777550395.781,0,61648,0,46780
 ,1770777550395.781,0,61666,0,46753
 ,1770777550395.781,0,61652,0,46761
 ,1770777550395.781,0,61624,0,46740
 ,1770777550395.781,0,61636,0,46757
 ,1770777550455.687,0,61632,0,46743
 ,1770777550455.687,0,61623,0,46742
 ,1770777550455.687,0,61615,0,46743
 ,1770777550455.687,0,61624,0,46736
 ,1770777550455.687,0,61619,0,46747
 ,1770777550455.687,0,61617,0,46741
 ,1770777550515.562,0,61624,0,46729
 ,1770777550515.562,0,61598,0,46735
 ,1770777550515.562,0,61620,0,46729
 ,1770777550515.562,0,61600,0,46738
 ,1770777550515.562,0,61617,0,46741
 ,1770777550515.562,0,61603,0,46723
 ,1770777550575.469,0,61616,0,46723
 ,1770777550575.469,0,61611,0,46736
 ,1770777550575.469,0,61622,0,46723
 ,1770777550575.469,0,61608,0,46726
 ,1770777550575.469,0,61620,0,46709
 ,1770777550575.469,0,61608,0,46720
 ,1770777550635.375,0,61630,0,46731
 ,1770777550635.375,0,61631,0,46735
 ,1770777550635.375,0,61643,0,46722
 ,1770777550635.375,0,61614,0,46731
 ,1770777550635.375,0,61649,0,46742
 ,1770777550635.375,0,61635,0,46734
 ,1770777550695.281,0,61654,0,46727
 ,1770777550695.281,0,61676,0,46735
 ,1770777550695.281,0,61655,0,46735
 ,1770777550695.281,0,61662,0,46737
 ,1770777550695.281,0,61670,0,46753
 ,1770777550695.281,0,61693,0,46751
 ,1770777550755.187,0,61679,0,46733
 ,1770777550755.187,0,61689,0,46746
 ,1770777550755.187,0,61684,0,46748
 ,1770777550755.187,0,61690,0,46749
 ,1770777550755.187,0,61667,0,46759
 ,1770777550755.187,0,61673,0,46758
 ,1770777550815.062,0,61670,0,46769
 ,1770777550815.062,0,61622,0,46769
 ,1770777550815.062,0,61649,0,46773
 ,1770777550815.062,0,61624,0,46758
 ,1770777550815.062,0,61607,0,46759
 ,1770777550815.062,0,61602,0,46741
 ,1770777550874.969,0,61577,0,46753
 ,1770777550874.969,0,61592,0,46742
 ,1770777550874.969,0,61581,0,46738
 ,1770777550874.969,0,61542,0,46744
 ,1770777550874.969,0,61546,0,46735
 ,1770777550874.969,0,61535,0,46722
 ,1770777550934.875,0,61557,0,46704
 ,1770777550934.875,0,61524,0,46710
 ,1770777550934.875,0,61516,0,46713
 ,1770777550934.875,0,61531,0,46689
 ,1770777550934.875,0,61495,0,46699
 ,1770777550934.875,0,61497,0,46682
 ,1770777550994.75,0,61511,0,46689
 ,1770777550994.75,0,61482,0,46680
 ,1770777550994.75,0,61494,0,46673
 ,1770777550994.75,0,61496,0,46672
 ,1770777550994.75,0,61502,0,46684
 ,1770777550994.75,0,61485,0,46664
 ,1770777551054.656,0,61496,0,46681
 ,1770777551054.656,0,61493,0,46649
 ,1770777551054.656,0,61498,0,46678
 ,1770777551054.656,0,61466,0,46671
 ,1770777551054.656,0,61477,0,46697
 ,1770777551054.656,0,61477,0,46669
 ,1770777551114.594,0,61473,0,46671
 ,1770777551114.594,0,61455,0,46681
 ,1770777551114.594,0,61466,0,46675
 ,1770777551114.594,0,61471,0,46670
 ,1770777551114.594,0,61468,0,46645
 ,1770777551114.594,0,61450,0,46653
 ,1770777551174.437,0,61463,0,46664
 ,1770777551174.437,0,61464,0,46661
 ,1770777551174.437,0,61466,0,46639
 ,1770777551174.437,0,61485,0,46646
 ,1770777551174.437,0,61473,0,46666
 ,1770777551174.437,0,61484,0,46667
 ,1770777551234.312,0,61469,0,46667
 ,1770777551234.312,0,61477,0,46675
 ,1770777551234.312,0,61493,0,46658
 ,1770777551234.312,0,61482,0,46665
 ,1770777551234.312,0,61516,0,46689
 ,1770777551234.312,0,61488,0,46684
 ,1770777551294.281,0,61504,0,46681
 ,1770777551294.281,0,61508,0,46680
 ,1770777551294.281,0,61514,0,46696
 ,1770777551294.281,0,61522,0,46686
 ,1770777551294.281,0,61523,0,46698
 ,1770777551294.281,0,61535,0,46701
 ,1770777551354.094,0,61543,0,46713
 ,1770777551354.094,0,61523,0,46699
 ,1770777551354.094,0,61546,0,46710
 ,1770777551354.094,0,61553,0,46717
 ,1770777551354.094,0,61562,0,46728
 ,1770777551354.094,0,61555,0,46719
 ,1770777551413.906,0,61578,0,46730
 ,1770777551413.906,0,61567,0,46733
 ,1770777551413.906,0,61589,0,46724
 ,1770777551413.906,0,61576,0,46723
 ,1770777551413.906,0,61577,0,46737
 ,1770777551413.906,0,61565,0,46729
 ,1770777551473.75,0,61564,0,46751
 ,1770777551473.75,0,61554,0,46758
 ,1770777551473.75,0,61549,0,46753
 ,1770777551473.75,0,61529,0,46766
 ,1770777551473.75,0,61530,0,46755
 ,1770777551473.75,0,61509,0,46759
 ,1770777551533.563,0,61498,0,46751
 ,1770777551533.563,0,61503,0,46734
 ,1770777551533.563,0,61484,0,46737
 ,1770777551533.563,0,61481,0,46727
 ,1770777551533.563,0,61465,0,46718
 ,1770777551533.563,0,61472,0,46733
 ,1770777551593.406,0,61460,0,46703
 ,1770777551593.406,0,61442,0,46718
 ,1770777551593.406,0,61437,0,46701
 ,1770777551593.406,0,61443,0,46700
 ,1770777551593.406,0,61422,0,46722
 ,1770777551593.406,0,61438,0,46715
 ,1770777551653.219,0,61440,0,46698
 ,1770777551653.219,0,61426,0,46716
 ,1770777551653.219,0,61439,0,46714
 ,1770777551653.219,0,61459,0,46716
 ,1770777551653.219,0,61423,0,46706
 ,1770777551653.219,0,61430,0,46701
 ,1770777551713.094,0,61419,0,46699
 ,1770777551713.094,0,61431,0,46713
 ,1770777551713.094,0,61426,0,46709
 ,1770777551713.094,0,61445,0,46707
 ,1770777551713.094,0,61414,0,46701
 ,1770777551713.094,0,61427,0,46701
 ,1770777551772.937,0,61404,0,46696
 ,1770777551772.937,0,61412,0,46713
 ,1770777551772.937,0,61417,0,46714
 ,1770777551772.937,0,61418,0,46698
 ,1770777551772.937,0,61429,0,46695
 ,1770777551772.937,0,61413,0,46716
 ,1770777551832.719,0,61424,0,46700
 ,1770777551832.719,0,61424,0,46723
 ,1770777551832.719,0,61423,0,46690
 ,1770777551832.719,0,61412,0,46701
 ,1770777551832.719,0,61417,0,46701
 ,1770777551832.719,0,61436,0,46710
 ,1770777551892.562,0,61427,0,46709
 ,1770777551892.562,0,61436,0,46726
 ,1770777551892.562,0,61453,0,46703
 ,1770777551892.562,0,61439,0,46726
 ,1770777551892.562,0,61463,0,46739
 ,1770777551892.562,0,61448,0,46719
 ,1770777551952.375,0,61474,0,46730
 ,1770777551952.375,0,61485,0,46734
 ,1770777551952.375,0,61487,0,46740
 ,1770777551952.375,0,61488,0,46754
 ,1770777551952.375,0,61487,0,46755
 ,1770777551952.375,0,61521,0,46756
 ,1770777552012.219,0,61526,0,46743
 ,1770777552012.219,0,61519,0,46761
 ,1770777552012.219,0,61550,0,46773
 ,1770777552012.219,0,61540,0,46776
 ,1770777552012.219,0,61542,0,46774
 ,1770777552012.219,0,61581,0,46786
 ,1770777552072.0,0,61576,0,46793
 ,1770777552072.0,0,61578,0,46795
 ,1770777552072.0,0,61581,0,46808
 ,1770777552072.0,0,61606,0,46808
 ,1770777552072.0,0,61593,0,46817
 ,1770777552072.0,0,61604,0,46807
 ,1770777552131.906,0,61593,0,46808
 ,1770777552131.906,0,61596,0,46820
 ,1770777552131.906,0,61592,0,46832
 ,1770777552131.906,0,61582,0,46838
 ,1770777552131.906,0,61557,0,46838
 ,1770777552131.906,0,61559,0,46826
 ,1770777552191.688,0,61556,0,46835
 ,1770777552191.688,0,61553,0,46819
 ,1770777552191.688,0,61539,0,46826
 ,1770777552191.688,0,61543,0,46817
 ,1770777552191.688,0,61544,0,46808
 ,1770777552191.688,0,61531,0,46820
 ,1770777552251.5,0,61533,0,46818
 ,1770777552251.5,0,61533,0,46797
 ,1770777552251.5,0,61539,0,46825
 ,1770777552251.5,0,61549,0,46794
 ,1770777552251.5,0,61526,0,46812
 ,1770777552251.5,0,61533,0,46807
 ,1770777552311.313,0,61526,0,46823
 ,1770777552311.313,0,61526,0,46821
 ,1770777552311.313,0,61545,0,46819
 ,1770777552311.313,0,61528,0,46807
 ,1770777552311.313,0,61547,0,46814
 ,1770777552311.313,0,61529,0,46803
 ,1770777552371.219,0,61528,0,46825
 ,1770777552371.219,0,61541,0,46803
 ,1770777552371.219,0,61531,0,46813
 ,1770777552371.219,0,61539,0,46836
 ,1770777552371.219,0,61533,0,46816
 ,1770777552371.219,0,61518,0,46827
 ,1770777552431.031,0,61526,0,46818
 ,1770777552431.031,0,61535,0,46827
 ,1770777552431.031,0,61536,0,46816
 ,1770777552431.031,0,61526,0,46809
 ,1770777552431.031,0,61533,0,46840
 ,1770777552431.031,0,61536,0,46826
 ,1770777552490.937,0,61546,0,46837
 ,1770777552490.937,0,61524,0,46838
 ,1770777552490.937,0,61548,0,46834
 ,1770777552490.937,0,61547,0,46834
 ,1770777552490.937,0,61551,0,46841
 ,1770777552490.937,0,61545,0,46844
 ,1770777552550.781,0,61549,0,46846
 ,1770777552550.781,0,61559,0,46851
 ,1770777552550.781,0,61576,0,46851
 ,1770777552550.781,0,61572,0,46868
 ,1770777552550.781,0,61565,0,46860
 ,1770777552550.781,0,61561,0,46872
 ,1770777552610.656,0,61574,0,46863
 ,1770777552610.656,0,61580,0,46884
 ,1770777552610.656,0,61584,0,46879
 ,1770777552610.656,0,61598,0,46880
 ,1770777552610.656,0,61602,0,46886
 ,1770777552610.656,0,61626,0,46884
 ,1770777552670.563,0,61608,0,46898
 ,1770777552670.563,0,61623,0,46880
 ,1770777552670.563,0,61639,0,46896
 ,1770777552670.563,0,61639,0,46900
 ,1770777552670.563,0,61637,0,46913
 ,1770777552670.563,0,61642,0,46927
 ,1770777552730.469,0,61660,0,46916
 ,1770777552730.469,0,61642,0,46921
 ,1770777552730.469,0,61656,0,46939
 ,1770777552730.469,0,61645,0,46935
 ,1770777552730.469,0,61629,0,46945
 ,1770777552730.469,0,61624,0,46952
 ,1770777552790.344,0,61612,0,46935
 ,1770777552790.344,0,61589,0,46950
 ,1770777552790.344,0,61570,0,46945
 ,1770777552790.344,0,61582,0,46940
 ,1770777552790.344,0,61576,0,46917
 ,1770777552790.344,0,61557,0,46948
 ,1770777552850.281,0,61563,0,46916
 ,1770777552850.281,0,61552,0,46918
 ,1770777552850.281,0,61537,0,46922
 ,1770777552850.281,0,61538,0,46919
 ,1770777552850.281,0,61542,0,46910
 ,1770777552850.281,0,61534,0,46920
 ,1770777552910.156,0,61529,0,46936
 ,1770777552910.156,0,61535,0,46917
 ,1770777552910.156,0,61556,0,46916
 ,1770777552910.156,0,61532,0,46916
 ,1770777552910.156,0,61537,0,46919
 ,1770777552910.156,0,61529,0,46921
 ,1770777552970.094,0,61541,0,46918
 ,1770777552970.094,0,61551,0,46919
 ,1770777552970.094,0,61546,0,46920
 ,1770777552970.094,0,61523,0,46898
 ,1770777552970.094,0,61546,0,46929
 ,1770777552970.094,0,61569,0,46931
 ,1770777553029.938,0,61554,0,46927
 ,1770777553029.938,0,61541,0,46929
 ,1770777553029.938,0,61548,0,46933
 ,1770777553029.938,0,61559,0,46941
 ,1770777553029.938,0,61533,0,46932
 ,1770777553029.938,0,61541,0,46937
 ,1770777553089.906,0,61542,0,46926
 ,1770777553089.906,0,61542,0,46943
 ,1770777553089.906,0,61537,0,46944
 ,1770777553089.906,0,61560,0,46929
 ,1770777553089.906,0,61563,0,46942
 ,1770777553089.906,0,61562,0,46943
 ,1770777553149.75,0,61560,0,46936
 ,1770777553149.75,0,61555,0,46945
 ,1770777553149.75,0,61569,0,46972
 ,1770777553149.75,0,61594,0,46968
 ,1770777553149.75,0,61592,0,46963
 ,1770777553149.75,0,61593,0,46980
 ,1770777553209.656,0,61611,0,46979
 ,1770777553209.656,0,61621,0,46969
 ,1770777553209.656,0,61627,0,46981
 ,1770777553209.656,0,61627,0,46982
 ,1770777553209.656,0,61631,0,47008
 ,1770777553209.656,0,61655,0,46976
 ,1770777553269.531,0,61654,0,46998
 ,1770777553269.531,0,61662,0,46996
 ,1770777553269.531,0,61677,0,47002
 ,1770777553269.531,0,61681,0,47014
 ,1770777553269.531,0,61695,0,47022
 ,1770777553269.531,0,61696,0,47032
 ,1770777553329.406,0,61713,0,47041
 ,1770777553329.406,0,61725,0,47041
 ,1770777553329.406,0,61715,0,47048
 ,1770777553329.406,0,61751,0,47061
 ,1770777553329.406,0,61761,0,47043
 ,1770777553329.406,0,61785,0,47060
 ,1770777553389.281,0,61791,0,47063
 ,1770777553389.281,0,61798,0,47077
 ,1770777553389.281,0,61805,0,47085
 ,1770777553389.281,0,61799,0,47086
 ,1770777553389.281,0,61827,0,47076
 ,1770777553389.281,0,61818,0,47090
 ,1770777553449.188,0,61793,0,47100
 ,1770777553449.188,0,61795,0,47097
 ,1770777553449.188,0,61780,0,47124
 ,1770777553449.188,0,61794,0,47109
 ,1770777553449.188,0,61788,0,47102
 ,1770777553449.188,0,61791,0,47095
 ,1770777553509.063,0,61783,0,47100
 ,1770777553509.063,0,61808,0,47107
 ,1770777553509.063,0,61800,0,47099
 ,1770777553509.063,0,61807,0,47088
 ,1770777553509.063,0,61805,0,47097
 ,1770777553509.063,0,61821,0,47099
 ,1770777553568.969,0,61827,0,47102
 ,1770777553568.969,0,61802,0,47100
 ,1770777553568.969,0,61827,0,47112
 ,1770777553568.969,0,61851,0,47092
 ,1770777553568.969,0,61853,0,47134
 ,1770777553568.969,0,61875,0,47098
 ,1770777553628.875,0,61874,0,47114
 ,1770777553628.875,0,61894,0,47125
 ,1770777553628.875,0,61920,0,47119
 ,1770777553628.875,0,61928,0,47134
 ,1770777553628.875,0,61934,0,47139
 ,1770777553628.875,0,61939,0,47153
 ,1770777553688.75,0,61946,0,47169
 ,1770777553688.75,0,61954,0,47165
 ,1770777553688.75,0,61956,0,47146
 ,1770777553688.75,0,61969,0,47167
 ,1770777553688.75,0,61991,0,47196
 ,1770777553688.75,0,62012,0,47177
 ,1770777553748.625,0,62026,0,47195
 ,1770777553748.625,0,62015,0,47199
 ,1770777553748.625,0,62042,0,47206
 ,1770777553748.625,0,62041,0,47197
 ,1770777553748.625,0,62053,0,47204
 ,1770777553748.625,0,62070,0,47200
 ,1770777553808.531,0,62090,0,47223
 ,1770777553808.531,0,62105,0,47239
 ,1770777553808.531,0,62101,0,47225
 ,1770777553808.531,0,62119,0,47252
 ,1770777553808.531,0,62142,0,47259
 ,1770777553808.531,0,62161,0,47233
 ,1770777553868.406,0,62159,0,47246
 ,1770777553868.406,0,62185,0,47273
 ,1770777553868.406,0,62216,0,47272
 ,1770777553868.406,0,62220,0,47269
 ,1770777553868.406,0,62215,0,47279
 ,1770777553868.406,0,62237,0,47296
 ,1770777553928.25,0,62249,0,47318
 ,1770777553928.25,0,62282,0,47319
 ,1770777553928.25,0,62278,0,47327
 ,1770777553928.25,0,62303,0,47326
 ,1770777553928.25,0,62321,0,47348
 ,1770777553928.25,0,62327,0,47350
 ,1770777553988.156,0,62334,0,47338
 ,1770777553988.156,0,62372,0,47367
 ,1770777553988.156,0,62378,0,47363
 ,1770777553988.156,0,62400,0,47357
 ,1770777553988.156,0,62413,0,47383
 ,1770777553988.156,0,62422,0,47384
 ,1770777554048.062,0,62435,0,47402
 ,1770777554048.062,0,62445,0,47406
 ,1770777554048.062,0,62468,0,47418
 ,1770777554048.062,0,62448,0,47413
 ,1770777554048.062,0,62462,0,47426
 ,1770777554048.062,0,62481,0,47429
 ,1770777554107.937,0,62504,0,47441
 ,1770777554107.937,0,62477,0,47450
 ,1770777554107.937,0,62499,0,47441
 ,1770777554107.937,0,62471,0,47445
 ,1770777554107.937,0,62496,0,47441
 ,1770777554107.937,0,62476,0,47433
 ,1770777554167.781,0,62502,0,47454
 ,1770777554167.781,0,62495,0,47464
 ,1770777554167.781,0,62485,0,47462
 ,1770777554167.781,0,62505,0,47448
 ,1770777554167.781,0,62502,0,47443
 ,1770777554167.781,0,62515,0,47467
 ,1770777554227.688,0,62516,0,47441
 ,1770777554227.688,0,62525,0,47453
 ,1770777554227.688,0,62531,0,47442
 ,1770777554227.688,0,62530,0,47477
 ,1770777554227.688,0,62554,0,47457
 ,1770777554227.688,0,62559,0,47457
 ,1770777554287.563,0,62560,0,47452
 ,1770777554287.563,0,62561,0,47446
 ,1770777554287.563,0,62584,0,47458
 ,1770777554287.563,0,62603,0,47467
 ,1770777554287.563,0,62597,0,47462
 ,1770777554287.563,0,62602,0,47484
 ,1770777554347.438,0,62612,0,47494
 ,1770777554347.438,0,62626,0,47470
 ,1770777554347.438,0,62639,0,47488
 ,1770777554347.438,0,62637,0,47492
 ,1770777554347.438,0,62641,0,47495
 ,1770777554347.438,0,62651,0,47499
 ,1770777554407.312,0,62653,0,47505
 ,1770777554407.312,0,62672,0,47514
 ,1770777554407.312,0,62661,0,47522
 ,1770777554407.312,0,62696,0,47529
 ,1770777554407.312,0,62696,0,47524
 ,1770777554407.312,0,62703,0,47530
 ,1770777554467.187,0,62721,0,47508
 ,1770777554467.187,0,62726,0,47526
 ,1770777554467.187,0,62749,0,47516
 ,1770777554467.187,0,62760,0,47531
 ,1770777554467.187,0,62756,0,47542
 ,1770777554467.187,0,62779,0,47545
 ,1770777554527.062,0,62788,0,47536
 ,1770777554527.062,0,62810,0,47544
 ,1770777554527.062,0,62831,0,47561
 ,1770777554527.062,0,62820,0,47553
 ,1770777554527.062,0,62854,0,47565
 ,1770777554527.062,0,62861,0,47600
 ,1770777554586.969,0,62866,0,47600
 ,1770777554586.969,0,62887,0,47612
 ,1770777554586.969,0,62898,0,47614
 ,1770777554586.969,0,62914,0,47649
 ,1770777554586.969,0,62916,0,47646
 ,1770777554586.969,0,62919,0,47675
 ,1770777554646.813,0,62945,0,47651
 ,1770777554646.813,0,62951,0,47690
 ,1770777554646.813,0,62983,0,47688
 ,1770777554646.813,0,62972,0,47712
 ,1770777554646.813,0,62992,0,47715
 ,1770777554646.813,0,63009,0,47718
 ,1770777554706.688,0,63018,0,47741
 ,1770777554706.688,0,63023,0,47735
 ,1770777554706.688,0,63037,0,47760
 ,1770777554706.688,0,63055,0,47761
 ,1770777554706.688,0,63058,0,47788
 ,1770777554706.688,0,63060,0,47800
 ,1770777554766.563,0,63069,0,47811
 ,1770777554766.563,0,63078,0,47821
 ,1770777554766.563,0,63072,0,47834
 ,1770777554766.563,0,63049,0,47824
 ,1770777554766.563,0,63068,0,47834
 ,1770777554766.563,0,63069,0,47851
 ,1770777554826.469,0,63073,0,47847
 ,1770777554826.469,0,63062,0,47852
 ,1770777554826.469,0,63084,0,47832
 ,1770777554826.469,0,63084,0,47849
 ,1770777554826.469,0,63082,0,47845
 ,1770777554826.469,0,63104,0,47850
 ,1770777554886.312,0,63091,0,47860
 ,1770777554886.312,0,63097,0,47846
 ,1770777554886.312,0,63095,0,47865
 ,1770777554886.312,0,63100,0,47872
 ,1770777554886.312,0,63125,0,47866
 ,1770777554886.312,0,63126,0,47886
 ,1770777554946.219,0,63152,0,47889
 ,1770777554946.219,0,63129,0,47885
 ,1770777554946.219,0,63150,0,47913
 ,1770777554946.219,0,63160,0,47898
 ,1770777554946.219,0,63166,0,47916
 ,1770777554946.219,0,63181,0,47926
 ,1770777555006.094,0,63185,0,47945
 ,1770777555006.094,0,63190,0,47937
 ,1770777555006.094,0,63194,0,47923
 ,1770777555006.094,0,63208,0,47941
 ,1770777555006.094,0,63202,0,47958
 ,1770777555006.094,0,63202,0,47965
 ,1770777555066.094,0,63212,0,47971
 ,1770777555066.094,0,63203,0,47966
 ,1770777555066.094,0,63209,0,47995
 ,1770777555066.094,0,63229,0,47973
 ,1770777555066.094,0,63221,0,47973
 ,1770777555066.094,0,63238,0,47999
